omega,vdos
0.0,0.003106190775182578
0.016669444907484583,0.0031062883555960617
0.033338889814969165,0.003107044519761958
0.050008334722453744,0.00310835533678555
0.06667777962993833,0.0031099793500709056
0.08334722453742291,0.003111995665929364
0.10001666944490749,0.0031153342031286255
0.11668611435239207,0.003118533649996274
0.13335555925987666,0.003124378330845303
0.15002500416736123,0.0031273098041808027
0.16669444907484582,0.003131151991287823
0.18336389398233038,0.0031365850129131895
0.20003333888981498,0.0031405612677617902
0.21670278379729957,0.003148630274248094
0.23337222870478413,0.003156644186170491
0.2500416736122687,0.003161433547574899
0.2667111185197533,0.003168754724629591
0.2833805634272379,0.0031776063528598988
0.30005000833472245,0.0031875167053555618
0.316719453242207,0.0031957727905292275
0.33338889814969164,0.0032083315520187007
0.3500583430571762,0.0032161848690194406
0.36672778796466077,0.0032253923236317127
0.38339723287214533,0.003238476199978446
0.40006667777962995,0.003246181734788577
0.4167361226871146,0.0032564241447428878
0.43340556759459914,0.0032717219908350585
0.4500750125020837,0.0032861485800992733
0.46674445740956827,0.003294749750554802
0.4834139023170529,0.0033107001412768064
0.5000833472245374,0.003328698916819765
0.516752792132022,0.0033371935915036087
0.5334222370395066,0.0033582335492747034
0.5500916819469912,0.0033722872890252892
0.5667611268544758,0.0033996692053353153
0.5834305717619603,0.0033895803639232176
0.6001000166694449,0.0034178740135932637
0.6167694615769296,0.003427071184585824
0.633438906484414,0.003450778636729977
0.6501083513918987,0.0034616318546509595
0.6667777962993833,0.0034845103064340115
0.6834472412068678,0.0035183535071629285
0.7001166861143524,0.0035270526827367093
0.716786131021837,0.0035475485156355197
0.7334555759293215,0.003558884978024684
0.7501250208368062,0.0035784309780389355
0.7667944657442907,0.0036192506587581297
0.7834639106517753,0.0036174327433718895
0.8001333555592599,0.003642214249963146
0.8168028004667445,0.003666132755198999
0.8334722453742291,0.0037008998710499606
0.8501416902817136,0.0037204536692567567
0.8668111351891983,0.0037300840574648734
0.8834805800966827,0.0037717817505729043
0.9001500250041674,0.0037820281538995964
0.916819469911652,0.003804809229745454
0.9334889148191365,0.0038291132497690825
0.9501583597266211,0.003857025792217
0.9668278046341058,0.0038887937646674394
0.9834972495415903,0.003885109948290037
1.0001666944490748,0.003939625800933488
1.0168361393565595,0.003956142421961237
1.033505584264044,0.003973244549945951
1.0501750291715286,0.003983690114628933
1.0668444740790133,0.0040238431600174655
1.0835139189864977,0.0040472401942762545
1.1001833638939824,0.004066346550523859
1.116852808801467,0.004114206273320319
1.1335222537089515,0.004125390762738942
1.150191698616436,0.004160320854876802
1.1668611435239207,0.004196806549224716
1.1835305884314054,0.0042124039176952045
1.2002000333388898,0.0042480124631828755
1.2168694782463743,0.004258256310854615
1.2335389231538592,0.004306775588586446
1.2502083680613436,0.004320265331571607
1.266877812968828,0.0043666057599279235
1.2835472578763127,0.0043877202493739255
1.3002167027837974,0.004448017655651632
1.3168861476912819,0.004447946969300114
1.3335555925987665,0.004489075089840166
1.3502250375062512,0.004522703741583354
1.3668944824137357,0.004549983553365363
1.3835639273212201,0.004620690420318353
1.4002333722287048,0.004601090499439118
1.4169028171361895,0.004682237779338148
1.433572262043674,0.004643028017857812
1.4502417069511586,0.00470435202982023
1.466911151858643,0.004734692906561238
1.4835805967661277,0.004781792797401101
1.5002500416736124,0.004792439877813012
1.5169194865810969,0.0048232419697484315
1.5335889314885813,0.0048762884475930844
1.550258376396066,0.004913747324566332
1.5669278213035507,0.004935468064109488
1.5835972662110351,0.004984509004528779
1.6002667111185198,0.005041849458143429
1.6169361560260045,0.00506019775524062
1.633605600933489,0.005073351898077586
1.6502750458409734,0.005184627311802273
1.6669444907484583,0.005153013993149341
1.6836139356559428,0.005210045053762668
1.7002833805634272,0.005283745218696651
1.7169528254709119,0.005242712620083155
1.7336222703783966,0.005280004990986094
1.750291715285881,0.005341376710906286
1.7669611601933655,0.0053171240484689705
1.7836306051008501,0.005422986038498175
1.8003000500083348,0.005455062083297584
1.8169694949158193,0.00547681392113009
1.833638939823304,0.005583642861469703
1.8503083847307884,0.00550214219709053
1.866977829638273,0.005559001360716614
1.8836472745457578,0.005650634912881694
1.9003167194532422,0.005665966180746056
1.9169861643607269,0.005700942261911213
1.9336556092682116,0.005705172868513709
1.950325054175696,0.005784927578356184
1.9669944990831807,0.005798439131017358
1.9836639439906651,0.005860465387482668
2.0003333888981496,0.005929456867850516
2.0170028338056345,0.005965506314663207
2.033672278713119,0.00599791364360919
2.0503417236206034,0.006069705458108349
2.067011168528088,0.006112814281480212
2.0836806134355728,0.006038972920898621
2.100350058343057,0.006142284944716136
2.1170195032505417,0.0061965382980849965
2.1336889481580266,0.006252997401510757
2.150358393065511,0.006259546513992515
2.1670278379729955,0.0063648984415764194
2.18369728288048,0.0063908538550900154
2.200366727787965,0.006450098814127876
2.2170361726954493,0.006458654823295614
2.233705617602934,0.006428222060179122
2.2503750625104186,0.00651278216613797
2.267044507417903,0.006605809308967308
2.2837139523253875,0.006599693501871547
2.300383397232872,0.006715245229191434
2.3170528421403565,0.006739653900110552
2.3337222870478413,0.006758609190561434
2.3503917319553262,0.0068742497792252805
2.3670611768628107,0.006875236132057747
2.383730621770295,0.006894866106561732
2.4004000666777796,0.00698890951611699
2.417069511585264,0.0070052888643708615
2.4337389564927485,0.0070143423295011345
2.4504084014002334,0.007150857907170446
2.4670778463077183,0.007157327001354457
2.4837472912152028,0.007121943727286379
2.5004167361226872,0.007234629788117301
2.5170861810301717,0.007323306923636309
2.533755625937656,0.007373879958934257
2.5504250708451406,0.007322425102586074
2.5670945157526255,0.007374829557046711
2.5837639606601104,0.007487223880608997
2.600433405567595,0.007549255217860825
2.6171028504750793,0.007583693947841596
2.6337722953825637,0.0077057360553876835
2.650441740290048,0.0076734840667378205
2.667111185197533,0.007747526082569484
2.6837806301050176,0.007805140660901787
2.7004500750125024,0.00784331999849372
2.717119519919987,0.007934094250032738
2.7337889648274714,0.008003776243262423
2.750458409734956,0.008089125110550991
2.7671278546424403,0.007995305722637605
2.783797299549925,0.008108339922393362
2.8004667444574096,0.00818119748991814
2.817136189364894,0.008219852047870938
2.833805634272379,0.008287584415647588
2.8504750791798634,0.008356267048704251
2.867144524087348,0.008487497635856994
2.8838139689948323,0.00851389145844892
2.9004834139023172,0.008625156346532596
2.9171528588098017,0.008591292071244951
2.933822303717286,0.008655570371027183
2.950491748624771,0.008675898059953101
2.9671611935322555,0.008759312305415445
2.98383063843974,0.008924806980233959
3.000500083347225,0.008897748720774997
3.0171695282547093,0.009157324418601133
3.0338389731621938,0.009013411400198372
3.050508418069678,0.00896496971431881
3.0671778629771627,0.009086003736100159
3.0838473078846476,0.009173364896250822
3.100516752792132,0.009229952946588155
3.117186197699617,0.009351811956377557
3.1338556426071014,0.009371562355722977
3.150525087514586,0.009482056791452373
3.1671945324220703,0.009616378925570454
3.1838639773295547,0.009668792738674424
3.2005334222370396,0.009675634262331517
3.2172028671445245,0.009738636450154303
3.233872312052009,0.009919142964183647
3.2505417569594934,0.009847686932412744
3.267211201866978,0.00978288503163079
3.2838806467744623,0.010009811483126204
3.300550091681947,0.010099701222522892
3.3172195365894313,0.01020536270423734
3.3338889814969166,0.010345827944786019
3.350558426404401,0.01029692444457698
3.3672278713118855,0.010463126128204292
3.38389731621937,0.01042364591970412
3.4005667611268544,0.010582763493721881
3.417236206034339,0.010737590839079011
3.4339056509418238,0.010744864088059814
3.450575095849308,0.010890414910602846
3.467244540756793,0.01075643723751118
3.4839139856642776,0.010966362430404695
3.500583430571762,0.011031707451282251
3.5172528754792465,0.011243599452462867
3.533922320386731,0.01109975506178689
3.550591765294216,0.011323336894923906
3.5672612102017003,0.011356179474348525
3.583930655109185,0.011473596735694256
3.6006001000166696,0.011829282898527499
3.617269544924154,0.011584052066012486
3.6339389898316385,0.01170511184400635
3.6506084347391234,0.01185698885029923
3.667277879646608,0.011975930806910352
3.6839473245540924,0.012084356877740428
3.700616769461577,0.01217941683512057
3.7172862143690617,0.012294423296213613
3.733955659276546,0.012252375652972065
3.7506251041840306,0.012460327048635941
3.7672945490915155,0.012679393000232289
3.783963993999,0.012744002557385285
3.8006334389064844,0.013030987253255298
3.817302883813969,0.012609990066923088
3.8339723287214538,0.012860731675489238
3.8506417736289382,0.013132276831979317
3.867311218536423,0.01320982450870312
3.8839806634439076,0.01336384727182305
3.900650108351392,0.013484220393793642
3.917319553258877,0.013813584281529557
3.9339889981663614,0.013687864471239113
3.950658443073846,0.0138495534103479
3.9673278879813303,0.014116989065027272
3.983997332888815,0.014235706612543912
4.000666777796299,0.014330155427884654
4.017336222703784,0.014467989756596689
4.034005667611269,0.01480576300871154
4.0506751125187535,0.0146923714840492
4.067344557426238,0.015199503643831835
4.084014002333722,0.015180051942170883
4.100683447241207,0.01533194158172965
4.117352892148691,0.01565190129728663
4.134022337056176,0.015660799375121288
4.150691781963661,0.01588804922903561
4.1673612268711455,0.016207736055985796
4.18403067177863,0.016473562417541922
4.200700116686114,0.016645501746458447
4.217369561593599,0.016983391900519788
4.234039006501083,0.017297609281058293
4.250708451408569,0.017580920708552238
4.267377896316053,0.017569929638611686
4.284047341223538,0.018098619470491094
4.300716786131022,0.01869960203463425
4.3173862310385065,0.018700109212910584
4.334055675945991,0.01903894285813712
4.350725120853475,0.019511771304400332
4.36739456576096,0.02007220986079473
4.384064010668444,0.020913454073208628
4.40073345557593,0.021259437572094336
4.417402900483414,0.021851781069089565
4.434072345390899,0.022684232024466747
4.450741790298383,0.023581779878082947
4.467411235205868,0.024183831233521427
4.484080680113353,0.025627423790040484
4.500750125020837,0.02748822960492497
4.517419569928322,0.0293089065023489
4.534089014835806,0.032213440540716086
4.550758459743291,0.03402614850089774
4.567427904650775,0.04069550784438459
4.5840973495582595,0.0413223862269718
4.600766794465744,0.054193273137193944
4.6174362393732284,0.07272449145292008
4.634105684280713,0.1255403561270965
4.650775129188198,0.18984248425718014
4.667444574095683,0.13447961686753437
4.684114019003168,0.05009822991440355
4.7007834639106525,0.022679508577717618
4.717452908818137,0.01883643489278182
4.734122353725621,0.010169065891937867
4.750791798633106,0.006679164568129375
4.76746124354059,0.004325098577949808
4.784130688448075,0.0035222538223385422
4.800800133355559,0.0046877855586990634
4.817469578263044,0.005989502305134895
4.834139023170528,0.0071070295877104514
4.850808468078013,0.007991919865606338
4.867477912985497,0.010054317121697715
4.8841473578929815,0.010263268430451227
4.900816802800467,0.009046410753198598
4.917486247707952,0.00989232155733795
4.934155692615437,0.010600379530719673
4.950825137522921,0.010658475574914261
4.9674945824304055,0.01165436032492328
4.98416402733789,0.012201555688280229
5.0008334722453744,0.012425343446410915
5.017502917152859,0.012910274517859964
5.034172362060343,0.013382798054524265
5.050841806967828,0.014205633765847384
5.067511251875312,0.015017923867037132
5.084180696782797,0.014573725472911544
5.100850141690281,0.015220466497558432
5.1175195865977665,0.015545994138217362
5.134189031505251,0.0158914554391091
5.150858476412736,0.01610717121712855
5.167527921320221,0.016621766496597305
5.184197366227705,0.016637962995309796
5.20086681113519,0.017152908500400476
5.217536256042674,0.01837579873963724
5.234205700950159,0.01827762654268288
5.250875145857643,0.018047484215542038
5.2675445907651275,0.018908368351987243
5.284214035672612,0.01966820976577892
5.300883480580096,0.0200919564961558
5.317552925487581,0.020186494965881454
5.334222370395066,0.020254573772220397
5.350891815302551,0.022140866925861254
5.367561260210035,0.019914710634726614
5.3842307051175196,0.019622990824885167
5.400900150025005,0.021453087606666067
5.417569594932489,0.020891740222398588
5.434239039839974,0.022061497290264014
5.450908484747458,0.021939027737472916
5.467577929654943,0.02405465662344444
5.484247374562427,0.02313155113988212
5.500916819469912,0.024977794525917116
5.517586264377396,0.026137901968573938
5.5342557092848805,0.02440961203617672
5.550925154192365,0.027960556675009803
5.56759459909985,0.028083723559906085
5.584264044007335,0.030141381888155877
5.600933488914819,0.021661719369626086
5.617602933822304,0.029271977651875874
5.634272378729788,0.028612097161032673
5.6509418236372735,0.02529100320238956
5.667611268544758,0.03262412312664439
5.684280713452242,0.033169074949522676
5.700950158359727,0.029348043827763168
5.717619603267211,0.029965677526938114
5.734289048174696,0.03325310023220135
5.75095849308218,0.03528947016917367
5.767627937989665,0.040027977706449634
5.78429738289715,0.0342386135957729
5.8009668278046345,0.04831559123303526
5.817636272712119,0.03689517986044543
5.834305717619603,0.05517329054124353
5.850975162527088,0.020777878000761456
5.867644607434572,0.0394729638353851
5.884314052342057,0.026409472085524435
5.900983497249542,0.00878356718389824
5.9176529421570265,0.0137091677236394
5.934322387064511,0.012532345379685488
5.950991831971995,0.01430390065243724
5.96766127687948,0.021138854818031152
5.984330721786964,0.013709529818437108
6.00100016669445,0.01886534204280359
6.017669611601934,0.018101781960928945
6.034339056509419,0.017233944505964872
6.051008501416903,0.01742061844723959
6.0676779463243875,0.019475252403485712
6.084347391231872,0.019183729196523953
6.101016836139356,0.021440539165405583
6.117686281046841,0.02110005555826988
6.134355725954325,0.02361550783281212
6.151025170861811,0.023507539966393768
6.167694615769295,0.02352167565563124
6.18436406067678,0.02349194397132774
6.201033505584264,0.02414876034942222
6.217702950491749,0.02536152200223197
6.234372395399234,0.02574398004775308
6.251041840306718,0.026240030739410065
6.267711285214203,0.029066872489801495
6.284380730121687,0.027979979206042976
6.301050175029172,0.02897628307592186
6.317719619936656,0.029585830648852243
6.3343890648441405,0.03179891551586004
6.351058509751625,0.0323457098677969
6.3677279546591095,0.03308219011651257
6.384397399566594,0.03507736849214459
6.401066844474079,0.03828291524628278
6.417736289381564,0.03573689168287642
6.434405734289049,0.03674476557172459
6.4510751791965335,0.0370867327285719
6.467744624104018,0.0393143358250822
6.484414069011502,0.04227034214946384
6.501083513918987,0.045037855014775086
6.517752958826471,0.04633123013248593
6.534422403733956,0.042992008384318325
6.55109184864144,0.04769250403527543
6.567761293548925,0.0527136760537854
6.584430738456409,0.06018472883078427
6.601100183363894,0.05380253353617651
6.617769628271378,0.0574781149097597
6.6344390731788625,0.06854851397554361
6.651108518086348,0.0670245078712353
6.667777962993833,0.0745056924534301
6.684447407901318,0.09581877040747183
6.701116852808802,0.10150434201545652
6.7177862977162865,0.10635988778015178
6.734455742623771,0.08624642413271125
6.7511251875312555,0.10192352799802493
6.76779463243874,0.14076601268895902
6.784464077346224,0.17442638464527319
6.801133522253709,0.23996931258339987
6.817802967161193,0.5560106088403668
6.834472412068678,0.28273354426400427
6.851141856976162,0.32242831079949447
6.8678113018836475,0.10919100316614955
6.884480746791132,0.11267525157696956
6.901150191698616,0.11473454622238081
6.917819636606102,0.06809214548865193
6.934489081513586,0.06943232479972423
6.951158526421071,0.04141277604049179
6.967827971328555,0.04682680172339538
6.98449741623604,0.027349684522864685
7.001166861143524,0.026410342352805996
7.0178363060510085,0.02747244179541851
7.034505750958493,0.03128742924258915
7.051175195865977,0.019857201625681487
7.067844640773462,0.01420379789022478
7.084514085680947,0.0169677513994465
7.101183530588432,0.013269798694201083
7.117852975495916,0.008370718550913517
7.134522420403401,0.008669557697195338
7.151191865310885,0.007573197357908043
7.16786131021837,0.0063759679561184186
7.184530755125855,0.006132934621293797
7.201200200033339,0.0076867688552457476
7.217869644940824,0.007281106061815182
7.234539089848308,0.010123196712243068
7.251208534755793,0.008253798674861788
7.267877979663277,0.010988870684155657
7.2845474245707615,0.011095190252491043
7.301216869478247,0.012678250305134246
7.317886314385731,0.014709127006876144
7.334555759293216,0.014667461711163446
7.3512252042007,0.01735395739573279
7.367894649108185,0.01608340002975631
7.384564094015669,0.017316801620202302
7.401233538923154,0.02062864421723343
7.417902983830639,0.024556689983992495
7.434572428738123,0.02516517802601659
7.451241873645608,0.023580906649538522
7.467911318553092,0.023294544669308963
7.484580763460577,0.02738032545558284
7.501250208368061,0.03172217830475756
7.517919653275547,0.03483057092877434
7.534589098183031,0.04027301689233548
7.5512585430905155,0.03864319144998394
7.567927987998,0.053141364629214094
7.584597432905484,0.0565128141342983
7.601266877812969,0.05286666011171159
7.617936322720453,0.07464820825107374
7.634605767627938,0.09055346030407584
7.651275212535422,0.09189776128964172
7.6679446574429075,0.06668876481252207
7.684614102350392,0.03911777905548484
7.7012835472578764,0.01312538616903159
7.717952992165361,0.010139783621233932
7.734622437072846,0.008897965372589968
7.751291881980331,0.010697655368836158
7.767961326887815,0.015418087135774843
7.7846307717953,0.019512389620916594
7.801300216702784,0.01881901599041095
7.817969661610269,0.022967190962786255
7.834639106517754,0.02108331609286554
7.851308551425238,0.025348766667616107
7.867977996332723,0.02720534635838734
7.884647441240207,0.029827322285761976
7.901316886147692,0.03261963403098037
7.917986331055176,0.03326152833956222
7.934655775962661,0.03257165156221795
7.951325220870146,0.0360840282591276
7.96799466577763,0.04042039445357824
7.984664110685115,0.04034503789523163
8.001333555592598,0.04706480731514108
8.018003000500084,0.04722339531243557
8.034672445407567,0.047724483713623124
8.051341890315053,0.06121989306207854
8.068011335222538,0.05047348564992114
8.084680780130022,0.05455960976308757
8.101350225037507,0.05857060035188045
8.11801966994499,0.0634114306380426
8.134689114852476,0.06347480700623248
8.15135855975996,0.06482309723509311
8.168028004667445,0.07853299954915556
8.184697449574928,0.10926191019518638
8.201366894482414,0.10051853000953478
8.218036339389897,0.09878615120028209
8.234705784297383,0.09926701786231976
8.251375229204866,0.18379884953506476
8.268044674112351,0.11096009681524892
8.284714119019839,0.11942988461986544
8.301383563927322,0.1543321763442209
8.318053008834807,0.06278802249978795
8.334722453742291,0.04994643727974514
8.351391898649776,0.09852093156465919
8.36806134355726,0.1303483368782251
8.384730788464745,0.04578605649708608
8.401400233372229,0.16972023913113773
8.418069678279714,0.13225409221304854
8.434739123187198,0.14660790870117035
8.451408568094683,0.32403885072735267
8.468078013002167,0.24570374998394728
8.484747457909652,0.14054116228454516
8.501416902817137,0.06782529431284595
